VAMAS Surface Chemical Analysis Standard Data Transfer Format 1988 May 4
Not Specified
Staib SuperCMA
Not Specified
Not Specified
1
WinSpectro DAQ
NORM
REGULAR
1
0
0
0
0
0
1
1st block id
1st sample id
2024
12
17
13
51
38
0
0
AES dir
egun
0.000000
0.000000
0.000000
0.000000
0.000000
0.000000
FAT
1e+037
1e+037
1e+037
1e+037
1e+037
1e+037
1e+037
1e+037
species
 
-1
Kinetic Energy
eV
74.998093
0.495918
1
Counts
d
pulse counting
0.200000
2
1e+037
0.000000
0.000000
0.000000
4
BKSrettime
n
5000
BKSsamples
n
26
BKSresomode
n
1
BKSresol
n
1.000000
979
92046
239996
239996
112410
127155
126752
126561
125204
125175
124817
123713
122958
123200
122523
121491
120814
120965
120437
119796
119950
118089
117669
117156
117865
116662
116875
115668
115369
114880
114648
113764
113916
113794
112685
111771
112770
111651
111031
110302
110278
109765
109321
108926
108816
109254
107925
107460
107454
106692
107398
106038
106442
105297
104788
105550
105076
105293
104898
103753
104597
103610
102954
103412
103057
102870
103132
101998
102592
101767
101951
101992
102205
101863
100787
101260
100716
100971
100748
100885
100125
100883
98959
99760
99036
99894
99677
99145
99307
98923
98643
98946
98668
98212
99073
98254
97936
97657
97686
97979
98143
98006
97919
97144
97809
98464
97741
97053
97834
97299
96734
97829
97120
97179
96941
97457
96904
96628
97088
97070
97586
97754
96987
97636
97645
97481
97268
97174
97617
97322
96632
97146
96804
97042
97359
97426
97122
97156
96965
97135
97015
96892
97202
97398
96294
97474
97684
97841
97518
96858
97573
97925
97999
98644
98214
97719
97778
97495
97531
97508
97255
97991
97794
97342
97888
96981
97647
97132
97033
97511
97557
97324
97457
96988
97019
96690
96467
97310
97011
96602
96808
96948
96624
96151
96856
97035
97261
96826
97107
97651
96840
97669
97445
96510
97011
96661
96418
96974
96398
96251
96477
96477
96311
95951
96204
96153
96220
97034
96327
96621
95953
95846
96659
96142
96145
96103
96564
96183
96530
96599
96751
96342
95891
96075
95971
96744
96975
97241
95728
96966
96282
97432
96719
97222
97250
96300
96326
96515
96965
96516
97012
96531
95951
96559
96961
96375
96836
96907
96532
97012
96769
97196
96989
97387
97557
96763
97110
97119
97709
96999
97510
97215
98085
96811
98189
97452
97433
97581
97798
97839
97984
97246
98090
97678
97964
97854
98302
98229
98116
97805
98337
98062
98262
97930
97944
98131
98368
97871
98623
99362
98657
98642
99228
99092
99285
99316
99561
99764
99671
99096
99737
100166
99678
100588
100024
100210
100791
100119
99918
99697
101318
100666
100821
100268
101377
100717
101391
101689
101330
101673
101941
102898
102341
102206
101857
102713
102538
102268
102305
102317
102394
102137
102711
102479
102565
102600
102850
101304
102527
102912
102417
102560
102828
102358
102748
102678
102876
104013
103565
103957
103694
104477
103242
105290
104958
104206
104201
105014
104749
104916
105220
103907
104622
104913
105174
104572
105691
105228
105272
105354
105926
105575
105877
106008
106311
106105
106171
107088
106490
106432
106154
106883
106552
107232
106982
106535
107277
107307
107270
107503
106656
108070
107847
106908
106906
107436
106899
107541
107147
107048
106915
106889
107391
106475
106734
106517
107403
106621
106468
106371
106025
105937
105940
105776
106032
106425
105980
105396
106346
106753
106518
106615
106865
106525
106620
107394
106487
106358
106837
107097
107199
106897
106915
107433
106129
107648
106755
107231
107403
107289
107727
108372
108491
108000
108514
107970
107885
108388
108038
107546
108548
109101
109362
109220
109688
108912
109327
108732
109083
109345
109832
109957
108833
109801
110400
110535
110098
109750
109891
110592
110049
109513
110478
110511
109685
111084
110737
110470
111120
111200
111134
110755
111155
111164
111320
111844
111646
112159
111882
111693
112307
112829
112123
112574
112052
112558
112928
112987
113649
113157
113702
113366
113363
113860
113980
114540
114350
114398
114232
113850
114988
114948
115177
116211
115325
115336
115927
115141
115226
116134
115889
115848
115445
115122
115679
115693
114863
115929
116387
115859
116030
115697
115873
116243
115293
116050
115681
116759
115250
115954
116601
116209
116290
116890
116746
117096
117518
117740
117972
118555
118812
119114
119833
120315
120196
119761
120368
121010
120572
121461
119756
121048
119457
120759
121149
120304
120642
121064
120381
121634
120768
121265
122247
122205
120950
120901
121260
121213
121247
122193
121154
120885
120489
121227
121559
121077
120517
121779
121617
121818
121998
122760
122995
123447
123664
123837
123556
124893
124645
124991
125833
126603
127979
128559
128561
129097
130140
132186
132927
133515
135157
137681
137071
137591
138812
139168
137570
137603
137003
135768
135513
135251
133887
131006
129183
128023
126614
123556
122318
120540
118802
116523
114886
113171
111700
111515
110339
109725
109254
109131
109154
108562
107781
108422
108864
108465
108090
108347
107859
108790
107901
107782
108232
107982
107147
107785
107768
107898
106942
106558
106711
106542
106341
107253
107302
106169
107257
106888
107402
108330
107982
109255
109436
109594
110746
112368
113680
113881
115172
116456
117421
116460
116861
116283
116377
115853
115614
114980
114360
114987
114164
113818
113859
112780
112683
111226
110318
108064
106914
105633
105109
104729
103561
102717
103487
102248
102669
102623
102422
101983
102175
102170
101360
101296
101941
101803
102041
102072
101612
102327
101810
102016
101760
101853
101279
100835
101837
101205
102079
102557
101432
102394
102617
101770
102558
102274
102975
102431
102541
103579
102961
103147
103791
103468
103258
104179
103547
104593
104106
104408
104231
104251
104982
104842
104395
103527
103898
103014
103740
103489
103750
103278
103139
103140
104035
103657
103498
103718
103754
104124
103888
104201
103600
103236
103706
103775
103936
104853
104143
104071
103789
104263
103975
104338
104092
104230
104331
104088
103899
103580
104347
104599
103953
104666
104520
104437
103393
103791
104370
103679
104909
103699
104072
104960
105517
105158
105174
105768
105281
106117
106883
106266
106345
105513
106236
106229
105819
105460
105216
105066
104992
105678
105340
105423
105877
105839
104886
105670
106434
106277
106532
107405
108149
107920
108797
109505
110629
111382
111429
113281
113073
112121
110961
110098
109326
107849
106517
107334
106564
107223
106652
106925
107017
106966
105893
106002
104783
104683
105278
104821
104054
103422
103280
102973
103894
104335
105025
105387
107021
108425
110741
113263
116239
119436
123438
127931
130724
133650
136199
138422
137220
135284
131204
125799
121313
116019
111131
108475
106761
104380
102992
101586
100868
101183
98580
97971
98018
95905
95637
95304
94483
94778
92846
93357
93116
92417
92302
92673
92146
93388
92640
92346
92736
92046
92514
92621
92223
92413
92893
93054
92317
92399
92239
93143
92917
92306
92210
92932
92355
92534
93147
92348
92757
93035
92934
92174
93317
92743
92659
93704
93464
93128
93066
92988
92671
93345
93599
93269
93887
93597
92957
93395
93733
93357
93893
93525
93332
93406
94383
93534
94187
93505
93760
94299
93706
93188
93800
93328
94125
93755
94081
94495
93064
94771
93863
93774
94325
93929
93515
94624
94108
94647
end of experiment
